"Time (s)";"X (rad/s)";"Y (rad/s)";"Z (rad/s)"
1.619560000E-1;1.002986729E-2;2.495259494E-1;-8.024236560E-2
1.719360000E-1;1.140438840E-1;5.737302080E-2;-2.878582478E-2
1.819450000E-1;1.519335508E-1;-1.511531472E-1;-4.970449954E-3
1.919550000E-1;1.518073082E-1;-2.755779028E-1;3.829966299E-3
2.019650000E-1;8.493418992E-2;-3.063579202E-1;-9.788656607E-4
2.119440000E-1;-4.372072220E-2;-2.548699677E-1;-3.822077811E-2
2.219540000E-1;-1.621118039E-1;-3.192609176E-2;-8.768127114E-2
2.319640000E-1;-2.139438540E-1;2.901842892E-1;-1.258928329E-1
2.419430000E-1;-2.101899683E-1;5.577021837E-1;-1.537562162E-1
2.519530000E-1;-1.762727499E-1;6.514286995E-1;-1.369335502E-1
2.619620000E-1;-1.144689843E-1;5.873891115E-1;-8.150462806E-2
2.719720000E-1;-3.498959914E-2;4.343607426E-1;-7.608033717E-3
2.819510000E-1;2.806361020E-2;2.043422461E-1;1.117618158E-1
2.919610000E-1;7.223400474E-2;-4.459088296E-2;1.970892251E-1
3.019710000E-1;6.617967039E-2;-2.987784445E-1;1.892554313E-1
3.119500000E-1;1.732774079E-3;-4.675003290E-1;1.291939616E-1
3.219600000E-1;-9.771419317E-2;-5.293771029E-1;9.187823534E-2
3.319700000E-1;-2.527639568E-1;-5.281088948E-1;1.080790386E-1
3.419490000E-1;-4.878306985E-1;-5.599046350E-1;1.386178434E-1
3.519590000E-1;-6.653327942E-1;-4.380311966E-1;1.150968075E-1
3.619690000E-1;-8.097236156E-1;-3.282252848E-1;1.191970930E-1
3.719780000E-1;-9.303458929E-1;-2.403300554E-1;1.858056784E-1
3.819580000E-1;-1.038558125E0;-4.263174534E-1;2.811937034E-1
3.919670000E-1;-1.149826288E0;-7.150450945E-1;3.676801026E-1
4.019770000E-1;-1.190699697E0;-8.354088068E-1;4.804852307E-1
4.119560000E-1;-1.139712691E0;-7.456245422E-1;5.815268755E-1
4.219660000E-1;-1.078028083E0;-5.920364261E-1;6.132540107E-1
4.319760000E-1;-1.047489882E0;-3.922477067E-1;5.778691173E-1
4.419550000E-1;-9.962127209E-1;-2.331510931E-1;5.308753252E-1
4.519650000E-1;-8.859826326E-1;-2.219461203E-1;5.247915983E-1
4.619750000E-1;-7.035816312E-1;-3.181277514E-1;5.645158291E-1
4.719840000E-1;-4.544026852E-1;-3.651016653E-1;6.378446221E-1
4.819640000E-1;-1.847031713E-1;-3.238297105E-1;7.132545114E-1
4.919730000E-1;1.002244353E-1;-2.357219607E-1;7.704200745E-1
5.019830000E-1;3.791466057E-1;-4.225979373E-2;7.842366695E-1
5.119620000E-1;6.190052629E-1;1.788531542E-1;7.540966272E-1
5.219720000E-1;7.311921716E-1;2.932479084E-1;6.451193690E-1
5.319820000E-1;7.049363256E-1;2.552033365E-1;4.836129844E-1
5.419920000E-1;6.071513891E-1;6.961949170E-2;2.773246765E-1
5.519710000E-1;4.948485494E-1;-2.670389712E-1;5.554541200E-2
5.619810000E-1;3.869091868E-1;-6.680573821E-1;-1.380957216E-1
5.719910000E-1;3.138930500E-1;-9.504930973E-1;-2.524228096E-1
5.819700000E-1;3.018825948E-1;-9.828361273E-1;-2.664441168E-1
5.919800000E-1;3.699575067E-1;-7.890653014E-1;-2.077578753E-1
6.019890000E-1;4.871530533E-1;-5.071892142E-1;-1.343740225E-1
6.119690000E-1;6.334317327E-1;-1.768530905E-1;-9.308703989E-2
6.219780000E-1;7.169301510E-1;5.600396916E-2;-8.085402846E-2
6.319880000E-1;7.285287380E-1;5.340232700E-2;-1.062565893E-1
6.419980000E-1;6.796979904E-1;-1.042232960E-1;-9.401533008E-2
6.519770000E-1;5.452975631E-1;-2.618424892E-1;-7.173958421E-2
6.619870000E-1;3.432863951E-1;-3.318670690E-1;-1.134898234E-2
6.719970000E-1;1.104288995E-1;-3.451690078E-1;1.244229600E-1
6.819760000E-1;-1.314924955E-1;-3.371257782E-1;2.732381225E-1
6.919860000E-1;-3.684531152E-1;-3.915174007E-1;3.537540138E-1
7.019950000E-1;-5.632256866E-1;-5.149061680E-1;3.693826497E-1
7.119750000E-1;-7.374256849E-1;-6.739490628E-1;2.744441628E-1
7.219840000E-1;-9.604172111E-1;-8.122951984E-1;9.360836446E-2
7.319940000E-1;-1.238782287E0;-8.643315434E-1;-7.178405672E-2
7.420040000E-1;-1.558816195E0;-7.954828739E-1;-9.425656497E-2
7.519830000E-1;-1.878254890E0;-7.078281045E-1;2.733165771E-2
7.619930000E-1;-2.105622292E0;-6.582196951E-1;2.354465574E-1
7.720030000E-1;-2.209019661E0;-7.053046823E-1;4.084055722E-1
7.819820000E-1;-2.198005915E0;-8.689408302E-1;4.150632024E-1
7.919920000E-1;-2.033669472E0;-9.298947453E-1;2.921809554E-1
8.020010000E-1;-1.742693782E0;-9.314005971E-1;1.180557311E-1
8.120110000E-1;-1.375075340E0;-9.730575085E-1;-1.570313610E-2
8.219910000E-1;-9.497025609E-1;-9.274215698E-1;-4.050660133E-2
8.320000000E-1;-5.268769860E-1;-8.918358684E-1;3.071831167E-2
8.420100000E-1;-2.888749912E-2;-9.049627781E-1;1.572733372E-1
8.519890000E-1;5.167796016E-1;-9.205393195E-1;2.774319649E-1
8.619990000E-1;1.016903639E0;-9.377270341E-1;3.552809358E-1
8.720090000E-1;1.347059131E0;-1.111897588E0;3.838396072E-1
8.819880000E-1;1.453440905E0;-1.138479948E0;3.761074543E-1
8.920329167E-1;1.368148446E0;-1.122593164E0;3.810548186E-1
9.020429167E-1;1.107810020E0;-1.115153670E0;4.148849845E-1
9.120519167E-1;7.428235412E-1;-1.060607314E0;4.803534746E-1
9.220319167E-1;3.545346260E-1;-9.522290826E-1;5.458725691E-1
9.320409167E-1;-1.843255013E-2;-8.110650182E-1;5.887030363E-1
9.420509167E-1;-3.531808257E-1;-7.088431120E-1;5.827326179E-1
9.520299167E-1;-6.235601306E-1;-5.961463451E-1;5.292102695E-1
9.620399167E-1;-8.176204562E-1;-4.683950543E-1;4.422177374E-1
9.720499167E-1;-9.264851213E-1;-3.397478461E-1;3.597947657E-1
9.820599167E-1;-9.153383374E-1;-1.733867377E-1;3.081592321E-1
9.920389167E-1;-7.783552408E-1;-2.864154056E-2;2.605507076E-1
1.002048917E0;-5.429188013E-1;5.521518365E-2;2.128592134E-1
1.012057917E0;-2.337058485E-1;9.565874934E-2;1.862326562E-1
1.022037917E0;1.242356449E-1;1.231383979E-1;1.701205224E-1
1.032046917E0;4.434019327E-1;6.838113815E-2;1.592265964E-1
1.042056917E0;6.820524931E-1;-6.195257977E-2;1.361686587E-1
1.052035917E0;8.540524840E-1;-2.009610683E-1;1.249184012E-1
1.062045917E0;9.522282481E-1;-3.806546926E-1;1.304693222E-1
1.072055917E0;1.009752512E0;-4.639852941E-1;2.148944438E-1
1.082065917E0;1.009917021E0;-5.727897286E-1;3.708080053E-1
1.092044917E0;9.232987761E-1;-7.510891557E-1;4.881327748E-1
1.102054917E0;7.925455570E-1;-1.012286305E0;5.616609454E-1
1.112064917E0;6.832534075E-1;-1.132598877E0;6.123180389E-1
1.122043917E0;5.705521703E-1;-1.201394677E0;6.923370361E-1
1.132053917E0;4.380691946E-1;-1.279109716E0;7.862020731E-1
1.142062917E0;3.497866094E-1;-1.226708055E0;8.198099732E-1
1.152072917E0;2.430590987E-1;-1.197511315E0;7.684858441E-1
1.162051917E0;2.982817963E-2;-1.255528808E0;5.482800007E-1
1.172061917E0;-1.074081846E-2;-1.664103746E0;1.866472065E-1
1.182071917E0;-1.063484102E-1;-2.181458950E0;1.107985899E-1
1.192050917E0;-5.744711161E-1;-2.001587629E0;1.740545183E-1
1.202060917E0;-1.061260223E0;-1.640444160E0;2.258453220E-1
1.212070917E0;-1.065331459E0;-1.873591900E0;4.687546492E-1
1.222049917E0;-9.608397484E-1;-2.004423857E0;9.458085299E-1
1.232059917E0;-7.124887705E-1;-1.935877323E0;1.302304626E0
1.242068917E0;-5.319586992E-1;-2.037419319E0;1.602072239E0
1.252078917E0;-4.301553071E-1;-2.139205456E0;1.869796157E0
1.262057917E0;-3.008423746E-1;-2.098768950E0;2.151358366E0
1.272067917E0;-6.610708684E-2;-2.036046982E0;2.359769106E0
1.282077917E0;1.703107357E-1;-1.963793516E0;2.113198519E0
1.292056917E0;4.141047597E-1;-2.327948093E0;1.424827218E0
1.302066917E0;8.098549843E-1;-2.898538589E0;8.118577600E-1
1.312076917E0;1.273388863E0;-3.244855881E0;6.794427633E-1
1.322055917E0;1.357153535E0;-3.417141438E0;8.736835122E-1
1.332065917E0;9.756410718E-1;-3.427561998E0;1.248991013E0
1.342075917E0;4.345124662E-1;-3.329320669E0;1.753873110E0
1.352084917E0;6.905219518E-3;-3.188951731E0;2.380409479E0
1.362064917E0;-3.327371776E-1;-3.167115927E0;3.064709187E0
1.372073917E0;-5.816628337E-1;-3.301758051E0;3.499910116E0
1.382083917E0;-5.729389191E-1;-3.481059313E0;3.481172085E0
1.392062917E0;-3.972378969E-1;-3.671622276E0;2.994877577E0
1.402072917E0;-2.553133667E-1;-3.874232054E0;2.400745869E0
1.412082917E0;-1.696469486E-1;-3.728426218E0;2.223594666E0
1.422092917E0;-2.184454799E-1;-3.170819521E0;2.477201700E0
1.432071917E0;-3.939373791E-1;-2.489071846E0;2.904395103E0
1.442081917E0;-5.408805609E-1;-1.959948659E0;3.276377439E0
1.452090917E0;-6.631263494E-1;-1.908555984E0;3.480770350E0
1.462070917E0;-7.322099805E-1;-2.304438353E0;3.457103014E0
1.472079917E0;-6.891021729E-1;-2.723362923E0;3.117769003E0
1.482089917E0;-5.804570913E-1;-2.953771353E0;2.512481213E0
1.492068917E0;-4.083945453E-1;-2.769155741E0;1.932297230E0
1.502078917E0;-1.887259930E-1;-2.047141075E0;1.657127738E0
1.512088917E0;-4.000895098E-2;-1.170994401E0;1.560883999E0
1.522098917E0;1.047125012E-1;-5.773285627E-1;1.480690837E0
1.532077917E0;2.517951727E-1;-2.531661987E-1;1.374767303E0
1.542087917E0;3.161263466E-1;-6.259426475E-2;1.210902452E0
1.552097917E0;2.703239620E-1;2.694814205E-1;1.005904794E0
1.562076917E0;5.867682397E-2;6.096993089E-1;7.942025661E-1
1.572086917E0;-2.530387044E-1;8.522344232E-1;3.872041702E-1
1.582095917E0;-3.408396542E-1;8.021917939E-1;3.218049183E-2
1.592105917E0;-2.059646547E-1;7.487567663E-1;-2.112486809E-1
1.602084917E0;2.486532927E-2;8.046458960E-1;-2.983784378E-1
1.612094917E0;2.326896340E-1;8.162612319E-1;-2.563987672E-1
1.622104917E0;4.566348195E-1;8.762081861E-1;-2.786364257E-1
1.632083917E0;7.883528471E-1;6.366448998E-1;-2.253862619E-1
1.642093917E0;1.126697659E0;8.363895118E-2;-2.166734636E-1
1.652103917E0;1.354488134E0;-3.667692244E-1;-2.391529381E-1
1.662082917E0;1.492868900E0;-6.191461086E-1;-2.131229490E-1
1.672092917E0;1.593883157E0;-7.822780013E-1;-1.764799803E-1
1.682101917E0;1.624045849E0;-9.395805597E-1;-1.287550628E-1
1.692111917E0;1.527524114E0;-9.812483788E-1;-4.639494047E-2
1.702090917E0;1.339265227E0;-8.255140185E-1;1.190155447E-1
1.712100917E0;1.092633605E0;-4.350623190E-1;3.215191364E-1
1.722110917E0;8.173120618E-1;-1.078854427E-1;3.499965370E-1
1.732089917E0;7.168800235E-1;1.793400012E-2;4.111866653E-1
1.742099917E0;8.120216727E-1;-4.568708837E-1;5.262933969E-1
1.752109917E0;1.173088670E0;-9.490579367E-1;5.810932517E-1
1.762118917E0;1.523454666E0;-1.233497381E0;5.779131055E-1
1.772098917E0;1.646003723E0;-1.114479065E0;4.714628160E-1
1.782108917E0;1.464320064E0;-7.270292044E-1;3.255936503E-1
1.792117917E0;1.029038072E0;-1.043832079E-1;1.246770769E-1
1.802097917E0;4.419370890E-1;4.284306765E-1;-1.710622758E-2
1.812106917E0;-2.621414140E-2;5.691113472E-1;-3.992392123E-2
1.822116917E0;-1.161886752E-1;4.897292554E-1;4.871624522E-3
1.832095917E0;1.442234665E-1;1.847397536E-1;4.817675427E-2
1.842105917E0;4.388056993E-1;1.330707669E-1;1.506773382E-1
1.852115917E0;4.643741548E-1;-1.157813892E-1;1.201287508E-1
1.862125917E0;6.426951885E-1;-2.076244205E-1;2.348882109E-1
1.872104917E0;8.802257180E-1;-4.394312799E-1;4.168585539E-1
1.882114917E0;1.191122651E0;-4.613020420E-1;5.448521972E-1
1.892118875E0;1.279938340E0;-3.467911780E-1;6.151026487E-1
1.902098875E0;1.180975318E0;5.885560438E-2;6.822472215E-1
1.912107875E0;8.820229173E-1;6.818408370E-1;6.346789002E-1
1.922117875E0;4.907191992E-1;1.043918967E0;4.257161021E-1
1.932127875E0;7.650552690E-2;1.188176513E0;2.460179627E-1
1.942106875E0;-4.024951756E-1;9.330231547E-1;1.807400584E-1
1.952116875E0;-9.483361840E-1;3.352351189E-1;1.855356097E-1
1.962126875E0;-1.473869920E0;-1.466007382E-1;4.098720253E-1
1.972105875E0;-1.737161994E0;-1.801682860E-1;7.900406718E-1
1.982115875E0;-1.627379656E0;-2.468971908E-2;1.118770003E0
1.992124875E0;-1.291536927E0;-9.891122580E-2;1.349699259E0
2.002104875E0;-1.148308754E0;-1.146297902E-1;1.329632759E0
2.012113875E0;-9.107903838E-1;9.254198074E-1;9.011776447E-1
2.022123875E0;-1.053394318E0;8.203172088E-1;6.546612978E-1
2.032133875E0;-1.520871997E0;-4.795045853E-1;8.116573095E-1
2.042112875E0;-1.161571860E0;2.857989073E-1;1.347532272E0
2.052122875E0;-1.495658755E-1;1.128628373E0;7.401243448E-1
2.062132875E0;4.823356271E-1;1.078873396E0;3.721674681E-1
2.072111875E0;1.128467202E0;1.463742256E0;3.698348105E-1
2.082121875E0;1.582469702E0;1.794838905E0;7.118216753E-1
2.092131875E0;1.826405644E0;2.131654024E0;9.689515233E-1
2.102110875E0;1.919452071E0;2.435473919E0;1.001445293E0
2.112120875E0;1.706297994E0;2.464552402E0;8.960991502E-1
2.122129875E0;1.288439631E0;2.281560659E0;6.761985421E-1
2.132139875E0;6.910773516E-1;1.752334595E0;5.884796381E-1
2.142118875E0;1.664336771E-1;1.181432605E0;7.289786339E-1
2.152128875E0;-1.846987754E-1;8.236740232E-1;9.265444279E-1
2.162138875E0;-2.144638002E-1;6.538671851E-1;1.063117862E0
2.172117875E0;8.895093948E-2;4.836105108E-1;1.119542837E0
2.182127875E0;5.354726315E-1;4.967082739E-1;1.116883755E0
2.192137875E0;9.421402812E-1;4.741827250E-1;1.018327117E0
2.202146875E0;1.072110891E0;4.834684134E-1;9.355188608E-1
2.212126875E0;8.323627114E-1;5.157400370E-1;8.296267986E-1
2.222135875E0;3.972846270E-1;3.237756193E-1;6.176782846E-1
2.232145875E0;3.611630760E-3;6.907116622E-2;3.057866693E-1
2.242124875E0;-4.256198406E-1;1.449842006E-2;2.623712271E-2
2.252134875E0;-7.603871822E-1;3.691824675E-1;6.471793354E-2
2.262144875E0;-8.556611538E-1;6.510305405E-1;2.934928536E-1
2.272123875E0;-6.315692067E-1;5.821465850E-1;5.910704732E-1
2.282133875E0;-1.484184563E-1;3.203076124E-1;8.907214403E-1
2.292143875E0;4.106184542E-1;-4.949306324E-2;1.053341746E0
2.302153875E0;8.619105816E-1;-3.704309464E-1;1.028499007E0
2.312132875E0;1.086812615E0;-4.696723223E-1;8.055959940E-1
2.322142875E0;1.081407070E0;-4.245107174E-1;5.356239080E-1
2.332151875E0;8.737317324E-1;-3.991315663E-1;3.156630397E-1
2.342131875E0;5.967954993E-1;-5.346347094E-1;2.295422107E-1
2.352140875E0;3.275349736E-1;-5.617446303E-1;3.360268474E-1
2.362150875E0;8.627001941E-2;-6.232506037E-1;6.274586916E-1
2.372160875E0;-6.818878651E-2;-9.154685736E-1;9.543305635E-1
2.382139875E0;-5.719354004E-2;-1.350422502E0;1.215824962E0
2.392149875E0;6.875799596E-2;-1.795247912E0;1.328706741E0
2.402159875E0;3.327023685E-1;-2.120019436E0;1.337193489E0
2.412138875E0;5.518565774E-1;-2.494812012E0;1.228624940E0
2.422148875E0;7.148150802E-1;-2.468499899E0;1.102283955E0
2.432157875E0;7.604249120E-1;-2.257925510E0;1.015788436E0
2.442137875E0;4.398537874E-1;-1.719906092E0;8.551108241E-1
2.452146875E0;-7.877815515E-4;-1.334494472E0;3.106741607E-1
2.462156875E0;-4.289307296E-1;-1.109182477E0;1.094078273E-1
2.472166875E0;-7.152367830E-1;-8.611936569E-1;1.372269392E-1
2.482145875E0;-5.544555187E-1;-1.092346668E0;1.707772464E-1
2.492155875E0;-2.078389674E-1;-1.829580784E0;3.390898108E-1
2.502165875E0;1.360004991E-1;-2.762275696E0;6.582638025E-1
2.512144875E0;4.922305048E-1;-3.613079071E0;8.813812733E-1
2.522154875E0;9.459750652E-1;-4.488885880E0;9.769369364E-1
2.532164875E0;1.523183346E0;-5.403068542E0;1.134745479E0
2.542173875E0;1.891794682E0;-6.025452137E0;1.321783781E0
2.552153875E0;1.995333791E0;-6.031334400E0;1.377805710E0
2.562162875E0;1.829054356E0;-5.235435963E0;1.367172718E0
2.572172875E0;1.493152022E0;-3.889092445E0;1.250197291E0
2.582151875E0;1.030996919E0;-2.820511103E0;1.343183517E0
2.592161875E0;5.158137083E-1;-2.369904041E0;1.498525620E0
2.602171875E0;4.250034690E-1;-2.286474943E0;1.500059366E0
2.612150875E0;4.485159814E-1;-2.677413940E0;1.423133373E0
2.622160875E0;3.997835517E-1;-2.925144911E0;1.225412250E0
2.632170875E0;4.292780459E-1;-2.964671612E0;1.052488089E0
2.642179875E0;5.647192001E-1;-2.880390644E0;8.658306599E-1
2.652159875E0;6.171048880E-1;-2.881775379E0;8.232421875E-1
2.662168875E0;8.196920156E-1;-2.695886612E0;7.907408476E-1
2.672178875E0;9.587891698E-1;-2.375249386E0;8.196310997E-1
2.682157875E0;8.878415823E-1;-1.950663209E0;1.016522288E0
2.692167875E0;4.085719585E-1;-1.050730705E0;1.308850050E0
2.702177875E0;-2.625923231E-2;-8.431440592E-1;1.272809386E0
2.712187875E0;-2.731411755E-1;-1.123424172E0;1.356470704E0
2.722166875E0;-1.405498087E-1;-1.632073402E0;1.397687435E0
2.732176875E0;1.861135364E-1;-2.265371561E0;1.107793331E0
2.742186875E0;3.530136049E-1;-2.508318663E0;1.137865782E0
2.752165875E0;6.635443121E-2;-2.376712561E0;1.208448291E0
2.762175875E0;-2.878898084E-1;-2.415811300E0;1.501615167E0
2.772184875E0;-1.415110081E-1;-2.275114059E0;1.616532683E0
2.782164875E0;2.255069464E-1;-2.372307301E0;1.338097334E0
2.792173875E0;1.201664060E-1;-1.903668523E0;7.880824208E-1
2.802183875E0;1.663288474E-1;-1.621077895E0;5.260550380E-1
2.812193875E0;1.260054857E-2;-1.494215608E0;4.801048338E-1
2.822172875E0;-4.977063835E-1;-1.000353217E0;2.478322983E-1
2.832182875E0;-5.856684446E-1;-6.982336044E-1;1.330681741E-1
2.842192875E0;-3.684383333E-1;-3.361878917E-2;-3.497718647E-2
2.852171875E0;4.089244828E-2;4.762700200E-1;-1.238940135E-1
2.862181875E0;5.180054307E-1;2.341167927E-1;-6.629422307E-2
2.872190875E0;7.452442050E-1;-2.144562006E-1;2.359936014E-3
2.882200875E0;1.120253801E0;-7.224954963E-1;3.033142388E-1
2.892201875E0;1.436281562E0;-1.179955229E-1;4.014482498E-1
2.902211875E0;1.514662862E0;-1.496794969E-1;3.131697178E-1
2.912221875E0;1.102903843E0;-8.347995281E-1;4.232051373E-1
2.922200875E0;6.403731704E-1;-9.015597105E-1;8.819503784E-1
2.932210875E0;1.770825088E-1;-1.027670622E0;1.127163768E0
2.942220875E0;-6.154250503E-1;-1.720981121E0;1.135872722E0
2.952199875E0;-1.271215200E0;-2.744778633E0;8.392972350E-1
2.962209875E0;-1.695950389E0;-4.272918701E0;9.855091572E-1
2.972219875E0;-1.365221739E0;-4.150850773E0;5.015445948E-1
2.982228875E0;-1.222058296E0;-3.684803486E0;1.946592629E-1
2.992208875E0;-8.526549339E-1;-1.707569003E0;2.393843830E-1
3.002217875E0;-3.518650681E-2;2.424272895E-1;6.202240586E-1
3.012227875E0;8.885074258E-1;5.781810284E-1;7.011367083E-1
3.022206875E0;1.626974702E0;8.167374134E-1;1.307026625E0
3.032216875E0;1.616909742E0;6.352637410E-1;1.697744846E0
3.042226875E0;8.559974432E-1;4.698730707E-1;1.343083382E0
3.052236875E0;2.680268884E-1;3.607370332E-2;1.051615596E0
3.062215875E0;-2.985129356E-1;-2.200060487E-1;6.782492399E-1
3.072225875E0;-5.649736524E-1;-2.388313599E-2;2.636438012E-1
3.082234875E0;-4.226664305E-1;4.049476385E-1;1.744396836E-1
3.092214875E0;-4.078760445E-1;6.830730438E-1;2.866924405E-1
3.102223875E0;-1.984973550E-1;8.479720354E-1;4.080975950E-1
3.112233875E0;4.884687662E-1;1.065387607E0;3.838436604E-1
3.122212875E0;1.178584218E0;1.116292953E0;3.547879159E-1
3.132222875E0;1.574437737E0;1.054364085E0;3.187406957E-1
3.142232875E0;1.376562595E0;8.249194622E-1;-3.606863916E-1
3.152242875E0;1.223929167E0;8.545545936E-1;-1.160091758E0
3.162221875E0;1.010166407E0;5.270863175E-1;-1.615426064E0
3.172231875E0;6.559886336E-1;3.468300104E-1;-1.760360599E0
3.182240875E0;4.013079405E-1;2.299113572E-1;-1.945655942E0
3.192220875E0;2.114711702E-1;-1.140510738E-1;-1.980088472E0
3.202229875E0;2.175440788E-1;-7.519255877E-1;-1.807669997E0
3.212239875E0;6.328139305E-1;-1.381731033E0;-1.546814203E0
3.222249875E0;1.519754291E0;-1.602009058E0;-1.175842881E0
3.232228875E0;2.527496099E0;-1.082909465E0;-8.253676891E-1
3.242238875E0;3.280859470E0;-6.914492249E-1;-5.600876808E-1
3.252248875E0;3.591752768E0;-9.713546038E-1;-2.169950306E-1
3.262227875E0;3.446824789E0;-1.310119390E0;8.760765940E-2
3.272237875E0;2.828795671E0;-1.266837955E0;3.357002735E-1
3.282247875E0;2.192085981E0;-1.111999273E0;6.229550242E-1
3.292226875E0;1.656193256E0;-9.134333730E-1;9.555116892E-1
3.302236875E0;1.124057651E0;-5.745546222E-1;1.442828655E0
3.312245875E0;9.166699052E-1;-2.017872036E-1;1.897028923E0
3.322255875E0;1.016649723E0;3.120431900E-1;2.124153137E0
3.332234875E0;1.010431767E0;4.528245330E-1;2.139330387E0
3.342244875E0;1.329402208E0;3.394920528E-1;2.663801432E0
3.352254875E0;2.560536385E0;-7.509549260E-1;3.183799982E0
3.362233875E0;3.716853142E0;-3.396199703E0;2.991786480E0
3.372243875E0;4.383239269E0;-5.142488956E0;2.914722204E0
3.382253875E0;4.730264664E0;-5.031784534E0;2.959642649E0
3.392262875E0;5.061567783E0;-4.081970215E0;3.073146582E0
3.402242875E0;4.854493141E0;-2.384083033E0;3.294275284E0
3.412251875E0;3.859787464E0;7.528810203E-2;3.688567877E0
3.422261875E0;2.688781977E0;1.966491580E0;3.939711332E0
3.432240875E0;1.643033624E0;1.996008515E0;3.735847473E0
3.442250875E0;-1.356974691E-1;5.759180188E-1;3.284721613E0
3.452260875E0;3.933665901E-2;1.687409133E-1;2.070070982E0
3.462239875E0;3.409970999E0;4.994279444E-1;2.120767593E0
3.472249875E0;4.212264061E0;5.102787018E-1;1.965787172E0
3.482259875E0;2.243111610E0;-8.594668657E-2;1.080146790E0
3.492269875E0;1.244612932E0;-1.379013181E0;8.637388945E-1
3.502248875E0;9.532807469E-1;-2.567105293E0;8.482597470E-1
